# SAXS profile: number of points = 501, q_min = 0, q_max = 0.5, delta_q = 0.001
#    q    intensity    error
0.00000    15928064.00000000 2389.20971680
0.00100    15927232.00000000 8600.70507812
0.00200    15916992.00000000 12176.49902344
0.00300    15907008.00000000 14316.30761719
0.00400    15888064.00000000 14299.25781250
0.00500    15865024.00000000 18562.08007812
0.00600    15833920.00000000 16625.61523438
0.00700    15794368.00000000 26534.53906250
0.00800    15749696.00000000 29766.92578125
0.00900    15701824.00000000 32973.83203125
0.01000    15647360.00000000 33563.58984375
0.01100    15582272.00000000 30852.90039062
0.01200    15517056.00000000 39335.73828125
0.01300    15443776.00000000 45404.70312500
0.01400    15362432.00000000 48391.66406250
0.01500    15283456.00000000 36680.29687500
0.01600    15196000.00000000 46499.76171875
0.01700    15100736.00000000 44849.18750000
0.01800    15006656.00000000 64153.45703125
0.01900    14900704.00000000 53642.53906250
0.02000    14795136.00000000 60586.08593750
0.02100    14683360.00000000 53300.60156250
0.02200    14564512.00000000 60297.08593750
0.02300    14445184.00000000 62403.19921875
0.02400    14319168.00000000 53696.87890625
0.02500    14188704.00000000 83003.92187500
0.02600    14055616.00000000 56925.24609375
0.02700    13920416.00000000 64312.32421875
0.02800    13777632.00000000 71919.24218750
0.02900    13630912.00000000 67473.01562500
0.03000    13484384.00000000 81513.10156250
0.03100    13331968.00000000 76792.14062500
0.03200    13179328.00000000 84808.97656250
0.03300    13022848.00000000 73058.17968750
0.03400    12862496.00000000 81033.72656250
0.03500    12701440.00000000 109740.44531250
0.03600    12535296.00000000 69570.89843750
0.03700    12364192.00000000 84571.07812500
0.03800    12192544.00000000 85591.66406250
0.03900    12020512.00000000 93759.99218750
0.04000    11850976.00000000 87460.21093750
0.04100    11675136.00000000 73553.35937500
0.04200    11497024.00000000 88986.96875000
0.04300    11321152.00000000 89663.52343750
0.04400    11139584.00000000 90230.64062500
0.04500    10957696.00000000 75608.10156250
0.04600    10778688.00000000 83588.73437500
0.04700    10597216.00000000 91559.95312500
0.04800    10413184.00000000 99497.97656250
0.04900    10232416.00000000 99766.06250000
0.05000    10049792.00000000 92257.09375000
0.05100    9868064.00000000 123153.44531250
0.05200    9685760.00000000 92402.14843750
0.05300    9502016.00000000 92359.60156250
0.05400    9318080.00000000 92248.99218750
0.05500    9133568.00000000 84394.17187500
0.05600    8954752.00000000 107188.38281250
0.05700    8771680.00000000 99207.71093750
0.05800    8592928.00000000 76047.41406250
0.05900    8414240.00000000 83300.98437500
0.06000    8236544.00000000 90437.25781250
0.06100    8058784.00000000 89936.03906250
0.06200    7884768.00000000 96864.38281250
0.06300    7709312.00000000 81410.33593750
0.06400    7537600.00000000 88189.92187500
0.06500    7364640.00000000 109364.91406250
0.06600    7196560.00000000 79557.96875000
0.06700    7028240.00000000 71688.04687500
0.06800    6864464.00000000 92361.36718750
0.06900    6699712.00000000 105520.46875000
0.07000    6538416.00000000 83560.95312500
0.07100    6379072.00000000 96451.57031250
0.07200    6220848.00000000 81741.94531250
0.07300    6067680.00000000 74086.38281250
0.07400    5914704.00000000 79848.50781250
0.07500    5764304.00000000 65713.07031250
0.07600    5616976.00000000 84338.89843750
0.07700    5472128.00000000 76828.68750000
0.07800    5329216.00000000 75781.45312500
0.07900    5188400.00000000 68486.88281250
0.08000    5052064.00000000 85935.61718750
0.08100    4915664.00000000 78601.46875000
0.08200    4782880.00000000 89320.28906250
0.08300    4653264.00000000 64494.24218750
0.08400    4525616.00000000 57701.60937500
0.08500    4401360.00000000 73810.80468750
0.08600    4280704.00000000 55863.18750000
0.08700    4160896.00000000 65908.59375000
0.08800    4043888.00000000 64783.08984375
0.08900    3932128.00000000 63700.47656250
0.09000    3819968.00000000 72999.59375000
0.09100    3710496.00000000 66566.30468750
0.09200    3604496.00000000 80452.35937500
0.09300    3502168.00000000 49380.57031250
0.09400    3401512.00000000 58165.85937500
0.09500    3302888.00000000 61830.06640625
0.09600    3207840.00000000 51341.48046875
0.09700    3114512.00000000 45783.32812500
0.09800    3024352.00000000 44911.62890625
0.09900    2936544.00000000 48452.98046875
0.10000    2850736.00000000 47507.51562500
0.10100    2767496.00000000 46576.96093750
0.10200    2687616.00000000 49828.40234375
0.10300    2608840.00000000 73256.23437500
0.10400    2532528.00000000 43876.04687500
0.10500    2458384.00000000 46905.96875000
0.10600    2387208.00000000 42146.16015625
0.10700    2317432.00000000 60067.84375000
0.10800    2250448.00000000 36794.82421875
0.10900    2184992.00000000 54078.55468750
0.11000    2121920.00000000 42395.96484375
0.11100    2060400.00000000 34614.72265625
0.11200    2000888.00000000 44089.57031250
0.11300    1943760.00000000 46533.61718750
0.11400    1887560.00000000 48840.61718750
0.11500    1833784.00000000 35098.62500000
0.11600    1782024.00000000 37529.42578125
0.11700    1731384.00000000 33710.04687500
0.11800    1682292.00000000 33031.80468750
0.11900    1636040.00000000 41228.20703125
0.12000    1589744.00000000 34624.62500000
0.12100    1545524.00000000 36768.01953125
0.12200    1503060.00000000 36050.89843750
0.12300    1461920.00000000 32630.05468750
0.12400    1421412.00000000 42642.36328125
0.12500    1382996.00000000 41821.80078125
0.12600    1345200.00000000 25626.06054688
0.12700    1309332.00000000 32680.92773438
0.12800    1274632.00000000 36996.19531250
0.12900    1240500.00000000 31446.67773438
0.13000    1207816.00000000 28480.30273438
0.13100    1176012.00000000 23285.03906250
0.13200    1145156.00000000 27415.03515625
0.13300    1115668.00000000 22424.92773438
0.13400    1086840.00000000 24209.36132812
0.13500    1059080.00000000 23765.75585938
0.13600    1032040.00000000 36054.32031250
0.13700    1006176.00000000 22910.62890625
0.13800    980660.00000000 22491.43945312
0.13900    955804.00000000 28100.64062500
0.14000    931892.00000000 21680.46679688
0.14100    909252.00000000 27113.89453125
0.14200    886740.00000000 28530.86132812
0.14300    865144.00000000 33636.80078125
0.14400    844044.00000000 20193.75390625
0.14500    823400.00000000 19835.70703125
0.14600    803684.00000000 23037.60351562
0.14700    784250.00000000 17410.34960938
0.14800    765386.00000000 18817.01562500
0.14900    747326.00000000 25222.25390625
0.15000    729714.00000000 18180.82421875
0.15100    712418.00000000 21116.07031250
0.15200    695646.00000000 19158.09179688
0.15300    679192.00000000 26671.87109375
0.15400    663444.00000000 20052.59765625
0.15500    648018.00000000 19712.70703125
0.15600    632862.00000000 16394.29101562
0.15700    618432.00000000 17588.20703125
0.15800    604118.00000000 18730.67968750
0.15900    590134.00000000 22661.14648438
0.16000    576682.00000000 19497.61914062
0.16100    563646.00000000 16435.91796875
0.16200    550760.00000000 17505.90625000
0.16300    538290.00000000 19862.90039062
0.16400    526198.00000000 16930.42187500
0.16500    514332.00000000 15368.24121094
0.16600    502864.00000000 20154.79101562
0.16700    491600.00000000 16104.81738281
0.16800    480592.00000000 17056.21093750
0.16900    470050.00000000 14383.53125000
0.17000    459738.00000000 15329.96386719
0.17100    449504.00000000 13916.64453125
0.17200    439830.00000000 14837.66601562
0.17300    430236.00000000 11229.16015625
0.17400    420980.00000000 13260.87109375
0.17500    412032.00000000 10877.64550781
0.17600    403284.00000000 10707.19140625
0.17700    394664.00000000 12645.03417969
0.17800    386300.00000000 11409.37109375
0.17900    378274.00000000 17362.77734375
0.18000    370523.00000000 17101.49023438
0.18100    362877.00000000 12878.50585938
0.18200    355445.00000000 18538.23437500
0.18300    348352.00000000 12498.87109375
0.18400    341507.00000000 14215.23046875
0.18500    334768.00000000 11208.03320312
0.18600    328265.00000000 11049.40039062
0.18700    321822.00000000 9075.38085938
0.18800    315697.00000000 12530.01464844
0.18900    309890.00000000 8831.86523438
0.19000    304077.00000000 10454.16796875
0.19100    298508.00000000 8597.03125000
0.19200    293115.00000000 9334.24707031
0.19300    287914.00000000 8378.29785156
0.19400    282918.00000000 9930.42187500
0.19500    277983.00000000 12259.05078125
0.19600    273313.00000000 12922.23925781
0.19700    268698.00000000 13566.56250000
0.19800    264267.00000000 7888.37060547
0.19900    259996.00000000 10919.83300781
0.20000    255855.00000000 13885.25097656
0.20100    251929.00000000 8396.79394531
0.20200    248004.00000000 8306.89453125
0.20300    244252.00000000 8221.52246094
0.20400    240684.00000000 11101.54980469
0.20500    237197.00000000 8062.32666016
0.20600    233733.00000000 8708.89257812
0.20700    230395.00000000 8625.98925781
0.20800    227247.00000000 9973.87109375
0.20900    224137.00000000 12708.56835938
0.21000    221148.00000000 7699.26806641
0.21100    218245.00000000 10410.28710938
0.21200    215401.00000000 7570.26855469
0.21300    212558.00000000 9552.35742188
0.21400    209879.00000000 6768.59814453
0.21500    207289.50000000 8731.03417969
0.21600    204725.50000000 8662.95996094
0.21700    202274.00000000 6614.35986328
0.21800    199727.00000000 7217.13525391
0.21900    197405.00000000 6514.36523438
0.22000    195004.50000000 7757.27929688
0.22100    192731.50000000 7059.75537109
0.22200    190442.50000000 6370.30224609
0.22300    188209.00000000 8220.96972656
0.22400    186041.00000000 6278.88378906
0.22500    183828.50000000 7478.14355469
0.22600    181746.00000000 8044.98730469
0.22700    179644.00000000 11058.88574219
0.22800    177459.50000000 7924.45458984
0.22900    175403.50000000 7261.70556641
0.23000    173326.00000000 7206.89501953
0.23100    171320.50000000 7750.53955078
0.23200    169278.00000000 11240.90625000
0.23300    167250.50000000 8805.73925781
0.23400    165245.00000000 5824.88671875
0.23500    163235.00000000 7512.07519531
0.23600    161284.50000000 7453.76367188
0.23700    159302.50000000 7393.22949219
0.23800    157276.50000000 6766.03515625
0.23900    155341.50000000 6710.75292969
0.24000    153319.50000000 7205.25000000
0.24100    151328.00000000 6042.52734375
0.24200    149409.50000000 9802.75781250
0.24300    147411.00000000 5934.76708984
0.24400    145490.00000000 7485.46093750
0.24500    143564.00000000 5297.51171875
0.24600    141593.50000000 5246.03955078
0.24700    139600.00000000 7270.36816406
0.24800    137716.00000000 6686.80078125
0.24900    135746.00000000 7635.71289062
0.25000    133816.00000000 6549.62402344
0.25100    131920.00000000 7978.52197266
0.25200    130019.00000000 6414.48730469
0.25300    128133.00000000 6834.61474609
0.25400    126222.00000000 6276.38916016
0.25500    124332.00000000 5251.78417969
0.25600    122463.50000000 6137.25878906
0.25700    120642.50000000 5135.75097656
0.25800    118746.00000000 6458.59521484
0.25900    116965.50000000 5017.81982422
0.26000    115156.75000000 4508.38720703
0.26100    113374.00000000 5346.71777344
0.26200    111618.00000000 6604.99560547
0.26300    109875.75000000 7831.94384766
0.26400    108129.25000000 4727.95166016
0.26500    106437.25000000 6370.27001953
0.26600    104808.25000000 5456.84179688
0.26700    103152.50000000 5390.75000000
0.26800    101552.25000000 4507.39648438
0.26900    99946.50000000  4857.40039062
0.27000    98390.00000000  5999.33056641
0.27100    96865.25000000  3952.10253906
0.27200    95401.50000000  3906.69165039
0.27300    93942.75000000  4633.25634766
0.27400    92550.25000000  4581.23779297
0.27500    91145.25000000  6414.80273438
0.27600    89819.25000000  4851.58740234
0.27700    88507.50000000  5536.14453125
0.27800    87241.00000000  5111.45068359
0.27900    86017.00000000  3973.98559570
0.28000    84825.25000000  3932.92285156
0.28100    83656.00000000  3892.51391602
0.28200    82559.50000000  5957.90625000
0.28300    81479.50000000  3471.02685547
0.28400    80463.25000000  4471.74511719
0.28500    79467.50000000  4772.81835938
0.28600    78506.00000000  4731.55664062
0.28700    77606.00000000  4358.35302734
0.28800    76715.75000000  5986.13037109
0.28900    75934.50000000  4294.09619141
0.29000    75143.00000000  4591.98925781
0.29100    74364.75000000  4560.04638672
0.29200    73655.75000000  3884.60449219
0.29300    72991.00000000  3862.68383789
0.29400    72340.50000000  3521.17382812
0.29500    71732.75000000  4458.90820312
0.29600    71165.75000000  3487.47753906
0.29700    70636.50000000  3788.94213867
0.29800    70136.00000000  3460.15966797
0.29900    69654.00000000  3761.31640625
0.30000    69250.50000000  3751.99218750
0.30100    68825.75000000  3429.58740234
0.30200    68458.62500000  3422.58911133
0.30300    68118.62500000  3106.20922852
0.30400    67802.25000000  3412.14843750
0.30500    67508.25000000  3098.62866211
0.30600    67221.12500000  3405.08642578
0.30700    67017.12500000  3405.81030273
0.30800    66796.25000000  4334.40917969
0.30900    66598.87500000  4954.95654297
0.31000    66418.87500000  3098.44042969
0.31100    66277.12500000  3101.76953125
0.31200    66133.50000000  3415.46459961
0.31300    65998.50000000  3419.38256836
0.31400    65893.37500000  3736.15454102
0.31500    65807.12500000  4990.81298828
0.31600    65736.75000000  4063.51733398
0.31700    65686.00000000  3446.54443359
0.31800    65621.87500000  3140.00683594
0.31900    65576.87500000  3777.22802734
0.32000    65553.75000000  4734.62011719
0.32100    65504.12500000  4745.77392578
0.32200    65503.37500000  4443.09423828
0.32300    65473.87500000  5727.65478516
0.32400    65469.62500000  4149.13769531
0.32500    65469.75000000  5122.35351562
0.32600    65462.00000000  3532.00219727
0.32700    65456.62500000  3542.51269531
0.32800    65474.12500000  4523.60742188
0.32900    65455.62500000  4212.06982422
0.33000    65460.50000000  3575.12524414
0.33100    65450.00000000  3259.41040039
0.33200    65462.50000000  3596.83715820
0.33300    65477.00000000  4264.51708984
0.33400    65453.50000000  5262.46191406
0.33500    65445.62500000  3958.15161133
0.33600    65445.75000000  5293.25244141
0.33700    65428.50000000  3980.67016602
0.33800    65421.62500000  4657.36572266
0.33900    65390.37500000  4001.89111328
0.34000    65390.50000000  3344.72412109
0.34100    65354.50000000  3352.68603516
0.34200    65321.37500000  3360.78491211
0.34300    65281.75000000  3705.39233398
0.34400    65245.50000000  3714.10009766
0.34500    65206.12500000  4061.03784180
0.34600    65160.62500000  4409.09375000
0.34700    65111.37500000  4758.33935547
0.34800    65051.00000000  5789.21386719
0.34900    64992.37500000  5118.14941406
0.35000    64930.62500000  3760.45751953
0.35100    64865.50000000  3424.89843750
0.35200    64789.25000000  4116.70947266
0.35300    64728.62500000  4468.21728516
0.35400    64658.25000000  4475.96728516
0.35500    64571.87500000  4482.57958984
0.35600    64507.12500000  3799.79223633
0.35700    64438.50000000  3460.34765625
0.35800    64365.62500000  3812.69799805
0.35900    64285.75000000  3471.43066406
0.36000    64213.62500000  6258.90234375
0.36100    64133.12500000  4178.91455078
0.36200    64059.87500000  4185.67236328
0.36300    63980.12500000  3493.31494141
0.36400    63914.37500000  4199.17480469
0.36500    63844.50000000  4206.07568359
0.36600    63783.25000000  4564.64843750
0.36700    63715.50000000  3868.80541992
0.36800    63664.75000000  4228.61328125
0.36900    63611.00000000  4236.49267578
0.37000    63546.50000000  3889.99902344
0.37100    63492.75000000  5314.34326172
0.37200    63455.75000000  5325.52392578
0.37300    63412.50000000  3913.18554688
0.37400    63381.50000000  4278.25146484
0.37500    63370.75000000  4646.34375000
0.37600    63343.25000000  5373.09130859
0.37700    63329.62500000  3949.86865234
0.37800    63336.37500000  3600.67309570
0.37900    63320.50000000  6135.75634766
0.38000    63324.62500000  4704.70312500
0.38100    63357.25000000  5082.51855469
0.38200    63365.12500000  5460.49023438
0.38300    63404.50000000  4017.30932617
0.38400    63453.50000000  4763.77148438
0.38500    63489.00000000  4411.21582031
0.38600    63540.12500000  4426.20507812
0.38700    63597.50000000  4071.51220703
0.38800    63660.50000000  4457.50830078
0.38900    63741.25000000  4101.74951172
0.39000    63814.12500000  4491.23828125
0.39100    63909.00000000  4133.63427734
0.39200    64017.62500000  4905.99072266
0.39300    64118.37500000  4547.27539062
0.39400    64226.62500000  3805.42773438
0.39500    64332.25000000  4967.73632812
0.39600    64466.00000000  4222.84570312
0.39700    64594.75000000  5398.82958984
0.39800    64723.62500000  5423.19287109
0.39900    64864.25000000  5059.41162109
0.40000    65017.75000000  3910.81762695
0.40100    65173.37500000  4322.95019531
0.40200    65328.25000000  5923.63916016
0.40300    65485.62500000  6746.32958984
0.40400    65645.37500000  5981.93505859
0.40500    65821.12500000  5211.05908203
0.40600    65998.50000000  5640.89208984
0.40700    66167.75000000  5264.30615234
0.40800    66338.50000000  4476.85400391
0.40900    66518.75000000  5318.17431641
0.41000    66696.25000000  4111.82421875
0.41100    66886.12500000  4960.27539062
0.41200    67054.00000000  4569.39501953
0.41300    67236.25000000  5845.52001953
0.41400    67424.37500000  5036.60107422
0.41500    67599.25000000  5061.83203125
0.41600    67772.87500000  4239.19335938
0.41700    67951.12500000  5538.69677734
0.41800    68131.50000000  5566.68457031
0.41900    68293.87500000  4732.76611328
0.42000    68457.25000000  4755.38330078
0.42100    68637.12500000  6082.62255859
0.42200    68788.00000000  5237.51855469
0.42300    68942.25000000  4823.19970703
0.42400    69100.50000000  4405.15722656
0.42500    69249.00000000  5310.01367188
0.42600    69381.62500000  4888.28271484
0.42700    69519.62500000  7587.37207031
0.42800    69655.50000000  4930.56494141
0.42900    69776.75000000  4950.66064453
0.43000    69889.00000000  5421.98876953
0.43100    70004.50000000  4536.29199219
0.43200    70093.00000000  5918.30273438
0.43300    70197.62500000  5940.82519531
0.43400    70277.00000000  5961.24658203
0.43500    70359.25000000  5981.94384766
0.43600    70418.25000000  6462.28320312
0.43700    70471.62500000  5092.98437500
0.43800    70528.37500000  5573.15234375
0.43900    70559.75000000  6054.02685547
0.44000    70589.87500000  6070.37646484
0.44100    70625.62500000  5618.97509766
0.44200    70631.12500000  4693.43847656
0.44300    70640.62500000  6586.53222656
0.44400    70635.00000000  5186.37548828
0.44500    70614.75000000  5196.53955078
0.44600    70585.62500000  5206.04296875
0.44700    70548.87500000  6637.23876953
0.44800    70497.25000000  5222.78906250
0.44900    70440.00000000  6181.11035156
0.45000    70383.00000000  4761.41015625
0.45100    70291.12500000  9054.90332031
0.45200    70205.06250000  5724.52099609
0.45300    70111.87500000  7161.92822266
0.45400    70006.43750000  4777.93945312
0.45500    69889.43750000  5258.48144531
0.45600    69768.00000000  6217.37548828
0.45700    69622.25000000  6217.96337891
0.45800    69478.56250000  5261.95947266
0.45900    69329.31250000  6697.21191406
0.46000    69164.56250000  6217.54833984
0.46100    68995.18750000  5259.50341797
0.46200    68817.00000000  5257.27490234
0.46300    68627.81250000  6687.09423828
0.46400    68426.06250000  7636.34863281
0.46500    68226.75000000  4769.05029297
0.46600    68019.68750000  6194.21289062
0.46700    67798.62500000  6187.30273438
0.46800    67563.62500000  6179.03173828
0.46900    67342.37500000  5222.40136719
0.47000    67100.18750000  6162.81689453
0.47100    66851.06250000  5206.36083984
0.47200    66595.18750000  8032.37890625
0.47300    66344.93750000  5188.83789062
0.47400    66075.18750000  6120.21484375
